"Distance [mm]","Voltage [V]"
0,-0.505061449406142
0.00429288,-0.505066850345478
0.00858576,-0.505083877244872
0.01287864,-0.505115254681666
0.01717152,-0.50516760775824
0.0214644,-0.505258179724319
0.02575728,-0.505446712432272
0.03005016,-0.505854720788476
0.03434304,-0.506346798446392
0.03863592,-0.506841150720577
0.0429288,-0.507335536860956
0.04722168,-0.507829923376588
0.05151456,-0.508324310094317
0.05580744,-0.508818696752014
0.06010032,-0.509313083450861
0.0643932,-0.509807470143398
0.06868608,-0.510301856836849
0.07297896,-0.510796243530452
0.07727184,-0.511290630224213
0.08156472,-0.511785016917989
0.0858576,-0.512279403611727
0.09015048,-0.512773790305418
0.09444336,-0.513268176998994
0.09873624,-0.513762563692389
0.10302912,-0.514256950385585
0.107322,-0.514751337078542
0.11161488,-0.515245723771254
0.11590776,-0.515740110463723
0.12020064,-0.516234497155949
0.12449352,-0.516728883847933
0.1287864,-0.517223270539659
0.13307928,-0.517717657231074
0.13737216,-0.518212043922181
0.14166504,-0.51870643061298
0.14595792,-0.51920081730347
0.1502508,-0.519695203993652
0.15454368,-0.520189590683524
0.15883656,-0.520683977373086
0.16312944,-0.521178364062336
0.16742232,-0.521672750751278
0.1717152,-0.522167137439913
0.17600808,-0.522661524128252
0.18030096,-0.523155910816284
0.18459384,-0.523650297504
0.18888672,-0.524144684191399
0.1931796,-0.524639070878447
0.19747248,-0.525133457565075
0.20176536,-0.525627844251282
0.20605824,-0.526122230937071
0.21035112,-0.526616617622435
0.214644,-0.52711100430737
0.21893688,-0.527605390991848
0.22322976,-0.528099777675875
0.22752264,-0.528594164359448
0.23181552,-0.529088551042569
0.2361084,-0.529582937725237
0.24040128,-0.530077324407453
0.24469416,-0.530571711089217
0.24898704,-0.531066097770527
0.25327992,-0.531560484451383
0.2575728,-0.532054871131764
0.26186568,-0.53254925781169
0.26615856,-0.533043644491161
0.27045144,-0.533538031170177
0.27474432,-0.534032417848742
0.2790372,-0.534526804526975
0.28333008,-0.535021191204927
0.28762296,-0.535515577882596
0.29191584,-0.536009964559984
0.29620872,-0.536504351237091
0.3005016,-0.536998737913918
0.30479448,-0.537493124590463
0.30908736,-0.537987511266728
0.31338024,-0.538481897942713
0.31767312,-0.538976284618417
0.321966,-0.539470671293839
0.32625888,-0.539965057968981
0.33055176,-0.540459444643843
0.33484464,-0.540953831318426
0.33913752,-0.54144821799273
0.3434304,-0.541942604666755
0.34772328,-0.542436991340501
0.35201616,-0.542931378013968
0.35630904,-0.543425764687155
0.36060192,-0.543920151360063
0.3648948,-0.544414538032692
0.36918768,-0.544908924705042
0.37348056,-0.545403311377113
0.37777344,-0.545897698048905
0.38206632,-0.546392084720418
0.3863592,-0.546886471391651
0.39065208,-0.547380858062606
0.39494496,-0.547875244733281
0.39923784,-0.548369631403677
0.40353072,-0.548864018073794
0.4078236,-0.549358404743632
0.41211648,-0.549852791413191
0.41640936,-0.550347178082471
0.42070224,-0.550841564751473
0.42499512,-0.551335951420197
0.429288,-0.551830338088647
0.43358088,-0.552324724756823
0.43787376,-0.552819111424723
0.44216664,-0.553313498092349
0.44645952,-0.553807884759699
0.4507524,-0.554302271426775
0.45504528,-0.554796658093577
0.45933816,-0.555291044760103
0.46363104,-0.555785431426355
0.46792392,-0.556279818092332
0.4722168,-0.556774204758034
0.47650968,-0.557268591423461
0.48080256,-0.557762978088614
0.48509544,-0.558257364753492
0.48938832,-0.558751751418095
0.4936812,-0.559246138082423
0.49797408,-0.559740524746476
0.50226696,-0.560234911410256
0.50655984,-0.560729298073762
0.51085272,-0.561223684736993
0.5151456,-0.56171807139995
0.51943848,-0.562212458062632
0.52373136,-0.56270684472504
0.52802424,-0.563201231387174
0.53231712,-0.563695618049033
0.53661,-0.564190004710618
0.54090288,-0.564684391371928
0.54519576,-0.565178778032964
0.54948864,-0.565673164693726
0.55378152,-0.566167551354213
0.5580744,-0.566661938014426
0.56236728,-0.567156324674364
0.56666016,-0.567650711334028
0.57095304,-0.568145097993418
0.57524592,-0.568639484652533
0.5795388,-0.569133871311374
0.58383168,-0.569628257969941
0.58812456,-0.570122644628234
0.59241744,-0.570617031286252
0.59671032,-0.571111417943996
0.6010032,-0.571605804601466
0.60529608,-0.572100191258661
0.60958896,-0.572594577915583
0.61388184,-0.573088964572229
0.61817472,-0.573583351228602
0.6224676,-0.5740777378847
0.62676048,-0.574572124540524
0.63105336,-0.575066511196074
0.63534624,-0.57556089785135
0.63963912,-0.576055284506351
0.643932,-0.576549671161078
0.64822488,-0.577044057815531
0.65251776,-0.577538444469709
0.65681064,-0.578032831123613
0.66110352,-0.578527217777243
0.6653964,-0.579021604430599
0.66968928,-0.57951599108368
0.67398216,-0.580010377736487
0.67827504,-0.58050476438902
0.68256792,-0.580999151041278
0.6868608,-0.581493537693262
0.69115368,-0.581987924344972
0.69544656,-0.582482310996409
0.69973944,-0.58297669764757
0.70403232,-0.583471084298458
0.7083252,-0.583965470949071
0.71261808,-0.58445985759941
0.71691096,-0.584954244249474
0.72120384,-0.585448630899264
0.72549672,-0.58594301754878
0.7297896,-0.586437404198021
0.73408248,-0.586931790846988
0.73837536,-0.58742617749568
0.74266824,-0.587920564144098
0.74696112,-0.588414950792242
0.751254,-0.588909337440111
0.75554688,-0.589403724087706
0.75983976,-0.589898110735026
0.76413264,-0.590392497382073
0.76842552,-0.590886884028844
0.7727184,-0.591381270675341
0.77701128,-0.591875657321563
0.78130416,-0.592370043967511
0.78559704,-0.592864430613184
0.78988992,-0.593358817258584
0.7941828,-0.593853203903708
0.79847568,-0.594347590548558
0.80276856,-0.594841977193135
0.80706144,-0.595336363837436
0.81135432,-0.595830750481464
0.8156472,-0.596325137125217
0.81994008,-0.596819523768696
0.82423296,-0.5973139104119
0.82852584,-0.59780829705483
0.83281872,-0.598302683697486
0.8371116,-0.598797070339868
0.84140448,-0.599291456981975
0.84569736,-0.599785843623807
0.84999024,-0.600280230265366
0.85428312,-0.600774616906649
0.858576,-0.601269003547659
0.86286888,-0.601763390188395
0.86716176,-0.602257776828855
0.87145464,-0.602752163469042
0.87574752,-0.603246550108954
0.8800404,-0.603740936748592
0.88433328,-0.604235323387956
0.88862616,-0.604729710027045
0.89291904,-0.605224096665861
0.89721192,-0.605718483304401
0.9015048,-0.606212869942667
0.90579768,-0.606707256580659
0.91009056,-0.607201643218377
0.91438344,-0.607696029855821
0.91867632,-0.608190416492989
0.9229692,-0.608684803129884
0.92726208,-0.609179189766504
0.93155496,-0.60967357640285
0.93584784,-0.610167963038922
0.94014072,-0.610662349674719
0.9444336,-0.611156736310242
0.94872648,-0.61165112294549
0.95301936,-0.612145509580465
0.95731224,-0.612639896215165
0.96160512,-0.61313428284959
0.965898,-0.613628669483742
0.97019088,-0.614123056117619
0.97448376,-0.614617442751221
0.97877664,-0.61511182938455
0.98306952,-0.6156062160176
0.9873624,-0.616100602650364
0.99165528,-0.616594989282857
0.99594816,-0.617089375915083
1.00024104,-0.617583762547045
1.00453392,-0.618078149178744
1.0088268,-0.61857253581018
1.01311968,-0.619066922441352
1.01741256,-0.619561309072261
1.02170544,-0.620055695702907
1.02599832,-0.62055008233329
1.0302912,-0.621044468963409
1.03458408,-0.621538855593265
1.03887696,-0.622033242222858
1.04316984,-0.622527628852188
1.04746272,-0.623022015481254
1.0517556,-0.623516402110057
1.05604848,-0.624010788738596
1.06034136,-0.624505175366873
1.06463424,-0.624999561994886
1.06892712,-0.625493948622636
1.07322,-0.625988335250122
1.07751288,-0.626482721877346
1.08180576,-0.626977108504308
1.08609864,-0.627471495131007
1.09039152,-0.627965881757443
1.0946844,-0.628460268383615
1.09897728,-0.628954655009523
1.10327016,-0.629449041635161
1.10756304,-0.62994342826054
1.11185592,-0.630437814885659
1.1161488,-0.630932201510519
1.12044168,-0.631426588135119
1.12473456,-0.631920974759459
1.12902744,-0.63241536138354
1.13332032,-0.632909748007362
1.1376132,-0.633404134630924
1.14190608,-0.633898521254226
1.14619896,-0.634392907877269
1.15049184,-0.634887294500053
1.15478472,-0.635381681122576
1.1590776,-0.635876067744841
1.16337048,-0.636370454366845
1.16766336,-0.63686484098859
1.17195624,-0.637359227610076
1.17624912,-0.637853614231302
1.180542,-0.638348000852269
1.18483488,-0.638842387472976
1.18912776,-0.639336774093424
1.19342064,-0.639831160713612
1.19771352,-0.64032554733354
1.2020064,-0.640819933953209
1.20629928,-0.641314320572618
1.21059216,-0.641808707191768
1.21488504,-0.642303093810659
1.21917792,-0.64279748042929
1.2234708,-0.643291867047661
1.22776368,-0.643786253665773
1.23205656,-0.644280640283633
1.23634944,-0.644775026901245
1.24064232,-0.645269413518603
1.2449352,-0.645763800135706
1.24922808,-0.646258186752555
1.25352096,-0.646752573369152
1.25781384,-0.647246959985496
1.26210672,-0.647741346601585
1.2663996,-0.648235733217421
1.27069248,-0.648730119833003
1.27498536,-0.64922450644833
1.27927824,-0.649718893063404
1.28357112,-0.650213279678223
1.287864,-0.650707666292789
1.29215688,-0.651202052907101
1.29644976,-0.651696439521158
1.30074264,-0.652190826134962
1.30503552,-0.652685212748511
1.3093284,-0.653179599361807
1.31362128,-0.653673985974849
1.31791416,-0.654168372587636
1.32220704,-0.65466275920017
1.32649992,-0.655157145812449
1.3307928,-0.655651532424475
1.33508568,-0.656145919036247
1.33937856,-0.656640305647764
1.34367144,-0.657134692259028
1.34796432,-0.657629078870038
1.3522572,-0.658123465480794
1.35655008,-0.658617852091296
1.36084296,-0.659112238701545
1.36513584,-0.659606625311541
1.36942872,-0.660101011921283
1.3737216,-0.660595398530771
1.37801448,-0.661089785140005
1.38230736,-0.661584171748986
1.38660024,-0.662078558357712
1.39089312,-0.662572944966185
1.395186,-0.663067331574405
1.39947888,-0.663561718182371
1.40377176,-0.664056104790085
1.40806464,-0.664550491397544
1.41235752,-0.665044878004752
1.4166504,-0.665539264611706
1.42094328,-0.666033651218407
1.42523616,-0.666528037824854
1.42952904,-0.667022424431049
1.43382192,-0.66751681103699
1.4381148,-0.668011197642679
1.44240768,-0.668505584248114
1.44670056,-0.668999970853296
1.45099344,-0.669494357458225
1.45528632,-0.669988744062901
1.4595792,-0.670483130667323
1.46387208,-0.670977517271493
1.46816496,-0.671471903875409
1.47245784,-0.671966290479073
1.47675072,-0.672460677082483
1.4810436,-0.67295506368564
1.48533648,-0.673449450288547
1.48962936,-0.673943836891201
1.49392224,-0.674438223493601
1.49821512,-0.674932610095744
1.502508,-0.675426996697628
1.50680088,-0.675921383299264
1.51109376,-0.676415769900653
1.51538664,-0.676910156501793
1.51967952,-0.677404543102685
1.5239724,-0.677898929703328
1.52826528,-0.678393316303723
1.53255816,-0.678887702903871
1.53685104,-0.679382089503771
1.54114392,-0.679876476103423
1.5454368,-0.680370862702827
1.54972968,-0.680865249301983
1.55402256,-0.681359635900891
1.55831544,-0.681854022499551
1.56260832,-0.682348409097964
1.5669012,-0.682842795696129
1.57119408,-0.683337182294045
1.57548696,-0.683831568891714
1.57977984,-0.684325955489136
1.58407272,-0.684820342086309
1.5883656,-0.685314728683234
1.59265848,-0.685809115279912
1.59695136,-0.686303501876341
1.60124424,-0.686797888472523
1.60553712,-0.687292275068457
1.60983,-0.687786661664143
1.61412288,-0.688281048259581
1.61841576,-0.688775434854771
1.62270864,-0.689269821449713
1.62700152,-0.689764208044408
1.6312944,-0.690258594638856
1.63558728,-0.690752981233056
1.63988016,-0.691247367827009
1.64417304,-0.691741754420714
1.64846592,-0.692236141014172
1.6527588,-0.692730527607384
1.65705168,-0.69322491420035
1.66134456,-0.693719300793072
1.66563744,-0.694213687385549
1.66993032,-0.69470807397778
1.6742232,-0.695202460569766
1.67851608,-0.695696847161506
1.68280896,-0.696191233753002
1.68710184,-0.696685620344252
1.69139472,-0.697180006935257
1.6956876,-0.697674393526018
1.69998048,-0.698168780116535
1.70427336,-0.698663166706807
1.70856624,-0.699157553296834
1.71285912,-0.699651939886616
1.717152,-0.70014632647615
1.72144488,-0.70064071306544
1.72573776,-0.701135099654487
1.73003064,-0.70162948624329
1.73432352,-0.702123872831848
1.7386164,-0.702618259420163
1.74290928,-0.703112646008229
1.74720216,-0.703607032596047
1.75149504,-0.704101419183626
1.75578792,-0.704595805770965
1.7600808,-0.705090192358065
1.76437368,-0.705584578944925
1.76866656,-0.706078965531544
1.77295944,-0.706573352117924
1.77725232,-0.707067738704065
1.7815452,-0.707562125289965
1.78583808,-0.708056511875626
1.79013096,-0.708550898461047
1.79442384,-0.709045285046228
1.79871672,-0.70953967163117
1.8030096,-0.710034058215872
1.80730248,-0.710528444800333
1.81159536,-0.711022831384556
1.81588824,-0.711517217968538
1.82018112,-0.712011604552281
1.824474,-0.712505991135785
1.82876688,-0.713000377719051
1.83305976,-0.713494764302077
1.83735264,-0.713989150884864
1.84164552,-0.714483537467413
1.8459384,-0.714977924049721
1.85023128,-0.715472310631792
1.85452416,-0.715966697213623
1.85881704,-0.716461083795215
1.86310992,-0.716955470376569
1.8674028,-0.717449856957683
1.87169568,-0.717944243538559
1.87598856,-0.718438630119195
1.88028144,-0.718933016699593
1.88457432,-0.719427403279751
1.8888672,-0.71992178985967
1.89316008,-0.720416176439351
1.89745296,-0.720910563018792
1.90174584,-0.721404949597995
1.90603872,-0.721899336176959
1.9103316,-0.722393722755684
1.91462448,-0.722888109334169
1.91891736,-0.723382495912416
1.92321024,-0.723876882490423
1.92750312,-0.724371269068192
1.931796,-0.724865655645722
1.93608888,-0.725360042223013
1.94038176,-0.725854428800064
1.94467464,-0.726348815376878
1.94896752,-0.726843201953452
1.9532604,-0.727337588529787
1.95755328,-0.727831975105884
1.96184616,-0.728326361681741
1.96613904,-0.72882074825736
1.97043192,-0.729315134832741
1.9747248,-0.729809521407886
1.97901768,-0.730303907982795
1.98331056,-0.730798294557466
1.98760344,-0.731292681131898
1.99189632,-0.731787067706095
1.9961892,-0.732281454280053
2.00048208,-0.732775840853774
2.00477496,-0.733270227427258
2.00906784,-0.733764614000505
2.01336072,-0.734259000573514
2.0176536,-0.734753387146286
2.02194648,-0.735247773718821
2.02623936,-0.735742160291118
2.03053224,-0.736236546863177
2.03482512,-0.736730933435
2.039118,-0.737225320006585
2.04341088,-0.737719706577933
2.04770376,-0.738214093149043
2.05199664,-0.738708479719916
2.05628952,-0.739202866290551
2.0605824,-0.73969725286095
2.06487528,-0.74019163943111
2.06916816,-0.740686026001034
2.07346104,-0.741180412570719
2.07775392,-0.741674799140167
2.0820468,-0.742169185709378
2.08633968,-0.742663572278352
2.09063256,-0.743157958847088
2.09492544,-0.743652345415587
2.09921832,-0.744146731983848
2.1035112,-0.744641118551871
2.10780408,-0.745135505119657
2.11209696,-0.745629891687206
2.11638984,-0.746124278254517
2.12068272,-0.746618664821591
2.1249756,-0.747113051388428
2.12926848,-0.747607437955026
2.13356136,-0.748101824521388
2.13785424,-0.748596211087512
2.14214712,-0.749090597653398
2.14644,-0.749584984219047
2.15073288,-0.750079370784459
2.15502576,-0.750573757349633
2.15931864,-0.751068143914569
2.16361152,-0.751562530479269
2.1679044,-0.752056917043731
2.17219728,-0.752551303607958
2.17649016,-0.753045690171948
2.18078304,-0.753540076735701
2.18507592,-0.754034463299217
2.1893688,-0.754528849862494
2.19366168,-0.755023236425534
2.19795456,-0.755517622988336
2.20224744,-0.756012009550912
2.20654032,-0.756506396113246
2.2108332,-0.757000782675335
2.21512608,-0.757495169237182
2.21941896,-0.757989555798786
2.22371184,-0.758483942360145
2.22800472,-0.758978328921262
2.2322976,-0.759472715482135
2.23659048,-0.759967102042764
2.24088336,-0.76046148860315
2.24517624,-0.760955875163293
2.24946912,-0.761450261723192
2.253762,-0.761944648282848
2.25805488,-0.762439034842261
2.26234776,-0.76293342140143
2.26664064,-0.763427807960355
2.27093352,-0.763922194519038
2.2752264,-0.764416581077477
2.27951928,-0.764910967635668
2.28381216,-0.765405354193615
2.28810504,-0.765899740751317
2.29239792,-0.766394127308775
2.2966908,-0.766888513865988
2.30098368,-0.767382900422957
2.30527656,-0.767877286979682
2.30956944,-0.768371673536162
2.31386232,-0.768866060092398
2.3181552,-0.76936044664839
2.32244808,-0.769854833204138
2.32674096,-0.770349219759641
2.33103384,-0.770843606314901
2.33532672,-0.771337992869915
2.3396196,-0.771832379424686
2.34391248,-0.772326765979211
2.34820536,-0.772821152533493
2.35249824,-0.773315539087531
2.35679112,-0.773809925641324
2.361084,-0.774304312194873
2.36537688,-0.774798698748178
2.36966976,-0.775293085301238
2.37396264,-0.775787471854054
2.37825552,-0.776281858406625
2.3825484,-0.776776244958954
2.38684128,-0.777270631511038
2.39113416,-0.777765018062878
2.39542704,-0.778259404614473
2.39971992,-0.778753791165823
2.4040128,-0.779248177716928
2.40830568,-0.779742564267789
2.41259856,-0.780236950818404
2.41689144,-0.780731337368777
2.42118432,-0.781225723918902
2.4254772,-0.781720110468778
2.42977008,-0.782214497018404
2.43406296,-0.782708883567782
2.43835584,-0.783203270116912
2.44264872,-0.783697656665791
2.4469416,-0.784192043214423
2.45123448,-0.784686429762805
2.45552736,-0.785180816310938
2.45982024,-0.785675202858822
2.46411312,-0.786169589406458
2.468406,-0.786663975953844
2.47269888,-0.787158362500981
2.47699176,-0.78765274904787
2.48128464,-0.788147135594509
2.48557752,-0.7886415221409
2.4898704,-0.789135908687041
2.49416328,-0.789630295232933
2.49845616,-0.790124681778571
2.50274904,-0.790619068323959
2.50704192,-0.791113454869097
2.5113348,-0.791607841413985
2.51562768,-0.792102227958623
2.51992056,-0.792596614503006
2.52421344,-0.793091001047138
2.52850632,-0.79358538759102
2.5327992,-0.794079774134653
2.53709208,-0.794574160678036
2.54138496,-0.795068547221168
2.54567784,-0.795562933764051
2.54997072,-0.796057320306686
2.5542636,-0.796551706849069
2.55855648,-0.797046093391203
2.56284936,-0.797540479933088
2.56714224,-0.798034866474723
2.57143512,-0.798529253016108
2.575728,-0.799023639557243
2.58002088,-0.799518026098129
2.58431376,-0.800012412638765
2.58860664,-0.800506799179151
2.59289952,-0.801001185719287
2.5971924,-0.801495572259174
2.60148528,-0.801989958798811
2.60577816,-0.802484345338198
2.61007104,-0.802978731877336
2.61436392,-0.803473118416223
2.6186568,-0.803967504954858
2.62294968,-0.804461891493242
2.62724256,-0.804956278031375
2.63153544,-0.80545066456926
2.63582832,-0.805945051106899
2.6401212,-0.806439437644282
2.64441408,-0.80693382418141
2.64870696,-0.807428210718282
2.65299984,-0.807922597254899
2.65729272,-0.80841698379126
2.6615856,-0.808911370327366
2.66587848,-0.809405756863216
2.67017136,-0.809900143398811
2.67446424,-0.81039452993415
2.67875712,-0.810888916469234
2.68305,-0.811383303004062
2.68734288,-0.811877689538635
2.69163576,-0.812372076072951
2.69592864,-0.812866462607009
2.70022152,-0.813360849140811
2.7045144,-0.813855235674357
2.70880728,-0.814349622207649
2.71310016,-0.814844008740684
2.71739304,-0.815338395273465
2.72168592,-0.81583278180599
2.7259788,-0.816327168338259
2.73027168,-0.816821554870273
2.73456456,-0.817315941402031
2.73885744,-0.817810327933535
2.74315032,-0.818304714464783
2.7474432,-0.818799100995775
2.75173608,-0.819293487526512
2.75602896,-0.819787874056993
2.76032184,-0.820282260587219
2.76461472,-0.82077664711719
2.7689076,-0.821271033646905
2.77320048,-0.821765420176365
2.77749336,-0.822259806705569
2.78178624,-0.822754193234518
2.78607912,-0.823248579763211
2.790372,-0.823742966291649
2.79466488,-0.824237352819823
2.79895776,-0.824731739347726
2.80325064,-0.825226125875365
2.80754352,-0.825720512402739
2.8118364,-0.82621489892985
2.81612928,-0.826709285456696
2.82042216,-0.827203671983277
2.82471504,-0.827698058509596
2.82900792,-0.82819244503565
2.8333008,-0.828686831561439
2.83759368,-0.829181218086962
2.84188656,-0.82967560461222
2.84617944,-0.830169991137212
2.85047232,-0.830664377661939
2.8547652,-0.831158764186401
2.85905808,-0.831653150710597
2.86335096,-0.832147537234528
2.86764384,-0.832641923758193
2.87193672,-0.833136310281593
2.8762296,-0.833630696804727
2.88052248,-0.834125083327596
2.88481536,-0.834619469850186
